# from (http://archives.esac.esa.int/hsa/legacy/ADP/PlanetaryModels/)# freq[GHz]	T_rj[K_rj]
2.0	301.566
3.0	256.2027
4.0	247.8985
5.0	239.0272
6.0	229.7386
7.0	220.3355
8.0	211.1068
9.0	202.2897
10.0	194.0455
11.0	186.4784
12.0	179.6298
13.0	173.5151
14.0	168.1097
15.0	163.3602
16.0	159.225
17.0	155.6295
18.0	152.5146
19.0	149.8201
20.0	147.5014
21.0	145.4868
22.0	143.7581
23.0	142.2653
24.0	140.9782
25.0	139.8698
26.0	138.9124
27.0	138.0847
28.0	137.3738
29.0	136.7628
30.0	136.2264
31.0	135.7628
32.0	135.3534
33.0	134.9944
34.0	134.6796
35.0	134.3944
36.0	134.1395
37.0	133.912
38.0	133.6985
39.0	133.5013
40.0	133.3192
41.0	133.1469
42.0	132.9774
43.0	132.8163
44.0	132.6606
45.0	132.5078
46.0	132.3539
47.0	132.1993
48.0	132.0483
49.0	131.8991
50.0	131.7458
51.0	131.5867
52.0	131.4285
53.0	131.271
54.0	131.1127
55.0	130.9471
56.0	130.7757
57.0	130.6033
58.0	130.4315
59.0	130.2589
60.0	130.0837
61.0	129.8948
62.0	129.7031
63.0	129.5119
64.0	129.3212
65.0	129.1294
66.0	128.9324
67.0	128.7261
68.0	128.5166
69.0	128.3062
70.0	128.0956
71.0	127.8855
72.0	127.6729
73.0	127.4549
74.0	127.227
75.0	126.9993
76.0	126.773
77.0	126.5466
78.0	126.3198
79.0	126.0925
80.0	125.8543
81.0	125.6124
82.0	125.3652
83.0	125.1207
84.0	124.8773
85.0	124.6339
86.0	124.3904
87.0	124.147
88.0	123.8934
89.0	123.6343
90.0	123.3727
91.0	123.111
92.0	122.8499
93.0	122.5901
94.0	122.3331
95.0	122.076
96.0	121.8187
97.0	121.5521
98.0	121.2781
99.0	121.0046
100.0	120.7314
101.0	120.4617
102.0	120.1937
103.0	119.9264
104.0	119.6593
105.0	119.3907
106.0	119.121
107.0	118.8453
108.0	118.5642
109.0	118.2844
110.0	118.0066
111.0	117.7299
112.0	117.4568
113.0	117.1839
114.0	116.9158
115.0	116.6477
116.0	116.373
117.0	116.0961
118.0	115.8164
119.0	115.5333
120.0	115.2505
121.0	114.9709
122.0	114.6914
123.0	114.4162
124.0	114.1431
125.0	113.8712
126.0	113.6032
127.0	113.3351
128.0	113.0591
129.0	112.7804
130.0	112.5017
131.0	112.2224
132.0	111.9432
133.0	111.6681
134.0	111.3958
135.0	111.1234
136.0	110.8562
137.0	110.5893
138.0	110.3239
139.0	110.063
140.0	109.8022
141.0	109.5357
142.0	109.2637
143.0	108.9918
144.0	108.7234
145.0	108.4567
146.0	108.1899
147.0	107.9287
148.0	107.6685
149.0	107.4084
150.0	107.1541
151.0	106.9003
152.0	106.6466
153.0	106.396
154.0	106.1456
155.0	105.8952
156.0	105.6368
157.0	105.3773
158.0	105.1177
159.0	104.8631
160.0	104.6099
161.0	104.3566
162.0	104.1084
163.0	103.8633
164.0	103.6182
165.0	103.3757
166.0	103.1372
167.0	102.8986
168.0	102.6603
169.0	102.423
170.0	102.1856
171.0	101.9483
172.0	101.7096
173.0	101.4704
174.0	101.2312
175.0	100.9942
176.0	100.7618
177.0	100.5294
178.0	100.297
179.0	100.072
180.0	99.8485
181.0	99.625
182.0	99.4029
183.0	99.1845
184.0	98.9662
185.0	98.7478
186.0	98.5282
187.0	98.3079
188.0	98.0876
189.0	97.8672
190.0	97.6473
191.0	97.4275
192.0	97.2076
193.0	96.9887
194.0	96.7763
195.0	96.5638
196.0	96.3514
197.0	96.1412
198.0	95.9366
199.0	95.7321
200.0	95.5276
201.0	95.3254
202.0	95.1277
203.0	94.93
204.0	94.7323
205.0	94.5347
206.0	94.3372
207.0	94.1398
208.0	93.9423
209.0	93.7463
210.0	93.5549
211.0	93.3635
212.0	93.1721
213.0	92.9811
214.0	92.796
215.0	92.6109
216.0	92.4258
217.0	92.2407
218.0	92.061
219.0	91.8827
220.0	91.7044
221.0	91.5262
222.0	91.3505
223.0	91.178
224.0	91.0055
225.0	90.833
226.0	90.6605
227.0	90.4889
228.0	90.3173
229.0	90.1457
230.0	89.9741
231.0	89.8056
232.0	89.6401
233.0	89.4746
234.0	89.3091
235.0	89.1436
236.0	88.9832
237.0	88.8234
238.0	88.6636
239.0	88.5038
240.0	88.3451
241.0	88.191
242.0	88.0369
243.0	87.8827
244.0	87.7286
245.0	87.5759
246.0	87.4252
247.0	87.2745
248.0	87.1238
249.0	86.9731
250.0	86.8224
251.0	86.6716
252.0	86.5208
253.0	86.3701
254.0	86.2193
255.0	86.0711
256.0	85.9254
257.0	85.7797
258.0	85.634
259.0	85.4883
260.0	85.3448
261.0	85.2044
262.0	85.064
263.0	84.9235
264.0	84.7831
265.0	84.6437
266.0	84.5076
267.0	84.3715
268.0	84.2354
269.0	84.0993
270.0	83.9632
271.0	83.8275
272.0	83.6917
273.0	83.556
274.0	83.4202
275.0	83.2845
276.0	83.1478
277.0	83.0104
278.0	82.8729
279.0	82.7355
280.0	82.5981
281.0	82.4608
282.0	82.3287
283.0	82.1966
284.0	82.0645
285.0	81.9324
286.0	81.8003
287.0	81.6701
288.0	81.5428
289.0	81.4154
290.0	81.288
291.0	81.1606
292.0	81.0333
293.0	80.909
294.0	80.7862
295.0	80.6635
296.0	80.5407
297.0	80.418
298.0	80.2952
299.0	80.1736
300.0	80.0522
301.0	79.9308
302.0	79.8094
303.0	79.688
304.0	79.5666
305.0	79.4474
306.0	79.3285
307.0	79.2097
308.0	79.0908
309.0	78.9719
310.0	78.853
311.0	78.7377
312.0	78.6233
313.0	78.5089
314.0	78.3945
315.0	78.2801
316.0	78.1657
317.0	78.0538
318.0	77.9437
319.0	77.8335
320.0	77.7234
321.0	77.6133
322.0	77.5031
323.0	77.3939
324.0	77.2872
325.0	77.1806
326.0	77.074
327.0	76.9673
328.0	76.8607
329.0	76.7541
330.0	76.6455
331.0	76.5365
332.0	76.4274
333.0	76.3184
334.0	76.2093
335.0	76.1003
336.0	75.9919
337.0	75.886
338.0	75.7801
339.0	75.6742
340.0	75.5683
341.0	75.4624
342.0	75.3565
343.0	75.2525
344.0	75.1504
345.0	75.0483
346.0	74.9463
347.0	74.8442
348.0	74.7421
349.0	74.64
350.0	74.5404
351.0	74.4421
352.0	74.3438
353.0	74.2455
354.0	74.1472
355.0	74.0489
356.0	73.9505
357.0	73.8539
358.0	73.7581
359.0	73.6622
360.0	73.5664
361.0	73.4706
362.0	73.3748
363.0	73.2789
364.0	73.1805
365.0	73.0796
366.0	72.9788
367.0	72.878
368.0	72.7772
369.0	72.6764
370.0	72.5755
371.0	72.4757
372.0	72.3787
373.0	72.2816
374.0	72.1846
375.0	72.0875
376.0	71.9905
377.0	71.8934
378.0	71.7964
379.0	71.7028
380.0	71.6098
381.0	71.5168
382.0	71.4238
383.0	71.3309
384.0	71.2379
385.0	71.1449
386.0	71.0529
387.0	70.9634
388.0	70.8739
389.0	70.7843
390.0	70.6948
391.0	70.6053
392.0	70.5158
393.0	70.4262
394.0	70.3385
395.0	70.252
396.0	70.1656
397.0	70.0791
398.0	69.9927
399.0	69.9063
400.0	69.8198
401.0	69.7334
402.0	69.6483
403.0	69.5639
404.0	69.4795
405.0	69.3951
406.0	69.3107
407.0	69.2263
408.0	69.1419
409.0	69.0575
410.0	68.9751
411.0	68.8938
412.0	68.8125
413.0	68.7312
414.0	68.6499
415.0	68.5686
416.0	68.4872
417.0	68.4059
418.0	68.326
419.0	68.2476
420.0	68.1692
421.0	68.0908
422.0	68.0124
423.0	67.934
424.0	67.8556
425.0	67.7772
426.0	67.6991
427.0	67.6233
428.0	67.5474
429.0	67.4715
430.0	67.3956
431.0	67.3197
432.0	67.2438
433.0	67.168
434.0	67.0921
435.0	67.0162
436.0	66.9402
437.0	66.8643
438.0	66.7884
439.0	66.7124
440.0	66.6365
441.0	66.5605
442.0	66.4846
443.0	66.4087
444.0	66.3329
445.0	66.2572
446.0	66.1814
447.0	66.1056
448.0	66.0299
449.0	65.9541
450.0	65.8784
451.0	65.8026
452.0	65.7271
453.0	65.654
454.0	65.581
455.0	65.508
456.0	65.435
457.0	65.362
458.0	65.2889
459.0	65.2159
460.0	65.1429
461.0	65.07
462.0	64.9996
463.0	64.9292
464.0	64.8587
465.0	64.7883
466.0	64.7179
467.0	64.6475
468.0	64.5771
469.0	64.5067
470.0	64.4363
471.0	64.368
472.0	64.3001
473.0	64.2322
474.0	64.1643
475.0	64.0964
476.0	64.0285
477.0	63.9606
478.0	63.8927
479.0	63.8248
480.0	63.7575
481.0	63.691
482.0	63.6245
483.0	63.558
484.0	63.4915
485.0	63.425
486.0	63.3585
487.0	63.292
488.0	63.2255
489.0	63.159
490.0	63.0941
491.0	63.0295
492.0	62.9649
493.0	62.9004
494.0	62.8358
495.0	62.7712
496.0	62.7067
497.0	62.6421
498.0	62.5775
499.0	62.513
500.0	62.4506
501.0	62.3881
502.0	62.3256
503.0	62.2631
504.0	62.2006
505.0	62.1381
506.0	62.0756
507.0	62.0131
508.0	61.9506
509.0	61.8883
510.0	61.8278
511.0	61.7673
512.0	61.7069
513.0	61.6464
514.0	61.586
515.0	61.5255
516.0	61.4651
517.0	61.4046
518.0	61.3441
519.0	61.2837
520.0	61.2249
521.0	61.1663
522.0	61.1077
523.0	61.0492
524.0	60.9906
525.0	60.932
526.0	60.8735
527.0	60.8149
528.0	60.7563
529.0	60.6977
530.0	60.6386
531.0	60.579
532.0	60.5193
533.0	60.4597
534.0	60.4
535.0	60.3404
536.0	60.2807
537.0	60.2211
538.0	60.1614
539.0	60.1025
540.0	60.0438
541.0	59.9852
542.0	59.9265
543.0	59.8678
544.0	59.8091
545.0	59.7515
546.0	59.6939
547.0	59.6362
548.0	59.5787
549.0	59.5215
550.0	59.4644
551.0	59.4076
552.0	59.3509
553.0	59.2944
554.0	59.2383
555.0	59.1821
556.0	59.1259
557.0	59.1408
558.0	59.0145
559.0	58.9591
560.0	58.9039
561.0	58.8489
562.0	58.7938
563.0	58.7388
564.0	58.6839
565.0	58.6295
566.0	58.575
567.0	58.5206
568.0	58.4664
569.0	58.4123
570.0	58.3587
571.0	58.3055
572.0	58.252
573.0	58.1989
574.0	58.1461
575.0	58.0932
576.0	58.0406
577.0	57.9882
578.0	57.9359
579.0	57.8836
580.0	57.8317
581.0	57.7799
582.0	57.7282
583.0	57.6767
584.0	57.6259
585.0	57.5751
586.0	57.5247
587.0	57.4745
588.0	57.4244
589.0	57.3743
590.0	57.3242
591.0	57.2744
592.0	57.2246
593.0	57.1749
594.0	57.1254
595.0	57.0759
596.0	57.0264
597.0	56.977
598.0	56.9279
599.0	56.8791
600.0	56.8303
601.0	56.7815
602.0	56.7326
603.0	56.6838
604.0	56.6351
605.0	56.5872
606.0	56.5393
607.0	56.4915
608.0	56.4436
609.0	56.3957
610.0	56.3479
611.0	56.3
612.0	56.2521
613.0	56.2043
614.0	56.1566
615.0	56.1098
616.0	56.0631
617.0	56.0163
618.0	55.9696
619.0	55.9228
620.0	55.8761
621.0	55.8294
622.0	55.7826
623.0	55.7359
624.0	55.6891
625.0	55.6424
626.0	55.5956
627.0	55.5499
628.0	55.5044
629.0	55.4588
630.0	55.4133
631.0	55.3677
632.0	55.3222
633.0	55.2766
634.0	55.2311
635.0	55.1855
636.0	55.14
637.0	55.0944
638.0	55.0489
639.0	55.0039
640.0	54.96
641.0	54.9162
642.0	54.8723
643.0	54.8284
644.0	54.7845
645.0	54.7407
646.0	54.6968
647.0	54.6529
648.0	54.6091
649.0	54.5652
650.0	54.5213
651.0	54.4774
652.0	54.4342
653.0	54.3915
654.0	54.3488
655.0	54.3061
656.0	54.2634
657.0	54.2207
658.0	54.1779
659.0	54.1352
660.0	54.0925
661.0	54.0498
662.0	54.0071
663.0	53.9644
664.0	53.9217
665.0	53.8794
666.0	53.8375
667.0	53.7956
668.0	53.7537
669.0	53.7119
670.0	53.67
671.0	53.6281
672.0	53.5862
673.0	53.5443
674.0	53.5027
675.0	53.4613
676.0	53.4198
677.0	53.3784
678.0	53.3369
679.0	53.2955
680.0	53.2543
681.0	53.2132
682.0	53.1721
683.0	53.131
684.0	53.09
685.0	53.049
686.0	53.0082
687.0	52.9677
688.0	52.9271
689.0	52.8865
690.0	52.8462
691.0	52.8057
692.0	52.7653
693.0	52.7249
694.0	52.6846
695.0	52.6446
696.0	52.6046
697.0	52.5645
698.0	52.5245
699.0	52.4847
700.0	52.4448
701.0	52.405
702.0	52.3653
703.0	52.3256
704.0	52.2858
705.0	52.2461
706.0	52.2062
707.0	52.1662
708.0	52.1262
709.0	52.0864
710.0	52.0467
711.0	52.007
712.0	51.9674
713.0	51.9278
714.0	51.8883
715.0	51.849
716.0	51.8097
717.0	51.7703
718.0	51.731
719.0	51.692
720.0	51.6529
721.0	51.6137
722.0	51.5747
723.0	51.5359
724.0	51.4972
725.0	51.4584
726.0	51.4197
727.0	51.3812
728.0	51.3426
729.0	51.3041
730.0	51.2655
731.0	51.227
732.0	51.1888
733.0	51.1506
734.0	51.1124
735.0	51.0742
736.0	51.0361
737.0	50.9979
738.0	50.9597
739.0	50.9218
740.0	50.8839
741.0	50.8461
742.0	50.8082
743.0	50.7704
744.0	50.7327
745.0	50.6951
746.0	50.6574
747.0	50.6199
748.0	50.5824
749.0	50.5449
750.0	50.5078
751.0	50.4705
752.0	50.4781
753.0	50.3962
754.0	50.3592
755.0	50.3221
756.0	50.2852
757.0	50.2483
758.0	50.2115
759.0	50.1747
760.0	50.1379
761.0	50.1012
762.0	50.0645
763.0	50.0278
764.0	49.9913
765.0	49.9548
766.0	49.9183
767.0	49.8819
768.0	49.8454
769.0	49.8089
770.0	49.7728
771.0	49.7366
772.0	49.7005
773.0	49.6643
774.0	49.6282
775.0	49.592
776.0	49.5556
777.0	49.5192
778.0	49.483
779.0	49.4467
780.0	49.4103
781.0	49.3741
782.0	49.3379
783.0	49.3018
784.0	49.2658
785.0	49.23
786.0	49.1941
787.0	49.1583
788.0	49.1224
789.0	49.0866
790.0	49.0509
791.0	49.0153
792.0	48.9797
793.0	48.944
794.0	48.9085
795.0	48.8732
796.0	48.8379
797.0	48.8026
798.0	48.7673
799.0	48.732
800.0	48.6967
801.0	48.6616
802.0	48.6267
803.0	48.5919
804.0	48.557
805.0	48.5222
806.0	48.4874
807.0	48.4525
808.0	48.4177
809.0	48.3828
810.0	48.348
811.0	48.3131
812.0	48.2788
813.0	48.2444
814.0	48.2101
815.0	48.1758
816.0	48.1414
817.0	48.1071
818.0	48.0728
819.0	48.0384
820.0	48.0041
821.0	47.9697
822.0	47.9354
823.0	47.9011
824.0	47.8671
825.0	47.8332
826.0	47.7994
827.0	47.7655
828.0	47.7317
829.0	47.6978
830.0	47.6639
831.0	47.6301
832.0	47.5965
833.0	47.563
834.0	47.5295
835.0	47.4961
836.0	47.4626
837.0	47.4292
838.0	47.3959
839.0	47.3626
840.0	47.3293
841.0	47.296
842.0	47.2628
843.0	47.2296
844.0	47.1967
845.0	47.1636
846.0	47.1305
847.0	47.0975
848.0	47.0646
849.0	47.0317
850.0	46.9988
851.0	46.9659
852.0	46.9333
853.0	46.9009
854.0	46.8686
855.0	46.8363
856.0	46.804
857.0	46.7719
858.0	46.7397
859.0	46.7075
860.0	46.6754
861.0	46.6432
862.0	46.611
863.0	46.5789
864.0	46.5471
865.0	46.515
866.0	46.4831
867.0	46.4514
868.0	46.4197
869.0	46.3879
870.0	46.3561
871.0	46.3243
872.0	46.2928
873.0	46.2613
874.0	46.2297
875.0	46.1982
876.0	46.1668
877.0	46.1353
878.0	46.1038
879.0	46.0724
880.0	46.0409
881.0	46.0095
882.0	45.9783
883.0	45.947
884.0	45.9158
885.0	45.8845
886.0	45.8535
887.0	45.8224
888.0	45.7914
889.0	45.7602
890.0	45.7292
891.0	45.6982
892.0	45.6673
893.0	45.6364
894.0	45.6056
895.0	45.5745
896.0	45.5438
897.0	45.5133
898.0	45.4827
899.0	45.452
900.0	45.4213
901.0	45.3906
902.0	45.36
903.0	45.3296
904.0	45.299
905.0	45.2685
906.0	45.2382
907.0	45.2077
908.0	45.1774
909.0	45.1469
910.0	45.1165
911.0	45.0866
912.0	45.0563
913.0	45.026
914.0	44.996
915.0	44.966
916.0	44.9358
917.0	44.9057
918.0	44.8756
919.0	44.8455
920.0	44.8156
921.0	44.7859
922.0	44.7561
923.0	44.7262
924.0	44.6964
925.0	44.6665
926.0	44.6369
927.0	44.607
928.0	44.5773
929.0	44.5476
930.0	44.518
931.0	44.4885
932.0	44.459
933.0	44.4295
934.0	44.4001
935.0	44.3706
936.0	44.3412
937.0	44.3119
938.0	44.2828
939.0	44.2538
940.0	44.2247
941.0	44.1956
942.0	44.1666
943.0	44.1377
944.0	44.109
945.0	44.0802
946.0	44.0515
947.0	44.0227
948.0	43.994
949.0	43.9652
950.0	43.9365
951.0	43.9077
952.0	43.8792
953.0	43.8507
954.0	43.8223
955.0	43.7938
956.0	43.7654
957.0	43.7369
958.0	43.7084
959.0	43.68
960.0	43.6515
961.0	43.623
962.0	43.5946
963.0	43.5661
964.0	43.5379
965.0	43.5096
966.0	43.4814
967.0	43.4532
968.0	43.4249
969.0	43.3967
970.0	43.3685
971.0	43.3402
972.0	43.3123
973.0	43.2843
974.0	43.2563
975.0	43.2284
976.0	43.2004
977.0	43.1724
978.0	43.1444
979.0	43.1165
980.0	43.0885
981.0	43.0607
982.0	43.0329
983.0	43.0053
984.0	42.9777
985.0	42.9499
986.0	42.9222
987.0	42.8945
988.0	42.9058
989.0	42.8394
990.0	42.8118
991.0	42.7842
992.0	42.7568
993.0	42.7293
994.0	42.7018
995.0	42.6743
996.0	42.6468
997.0	42.6194
998.0	42.592
999.0	42.5647
1000.0	42.5375
1001.0	42.5102
1002.0	42.483
1003.0	42.4558
1004.0	42.4285
1005.0	42.4013
1006.0	42.3741
1007.0	42.347
1008.0	42.3199
1009.0	42.2928
1010.0	42.2657
1011.0	42.2387
1012.0	42.2117
1013.0	42.1848
1014.0	42.1578
1015.0	42.1309
1016.0	42.1039
1017.0	42.0769
1018.0	42.05
1019.0	42.0233
1020.0	41.9965
1021.0	41.9698
1022.0	41.943
1023.0	41.9164
1024.0	41.8897
1025.0	41.8629
1026.0	41.8363
1027.0	41.8097
1028.0	41.7831
1029.0	41.7566
1030.0	41.7301
1031.0	41.7038
1032.0	41.6778
1033.0	41.6517
1034.0	41.6256
1035.0	41.5995
1036.0	41.5735
1037.0	41.5476
1038.0	41.5218
1039.0	41.4959
1040.0	41.4701
1041.0	41.4442
1042.0	41.4184
1043.0	41.3925
1044.0	41.3667
1045.0	41.341
1046.0	41.3154
1047.0	41.2894
1048.0	41.2636
1049.0	41.238
1050.0	41.2123
1051.0	41.1867
1052.0	41.1609
1053.0	41.1354
1054.0	41.1098
1055.0	41.0841
1056.0	41.0587
1057.0	41.0332
1058.0	41.0076
1059.0	40.9821
1060.0	40.9566
1061.0	40.9313
1062.0	40.9058
1063.0	40.8804
1064.0	40.8551
1065.0	40.8297
1066.0	40.8044
1067.0	40.7793
1068.0	40.7538
1069.0	40.7284
1070.0	40.7031
1071.0	40.6779
1072.0	40.6528
1073.0	40.6277
1074.0	40.6026
1075.0	40.5774
1076.0	40.5522
1077.0	40.5271
1078.0	40.5019
1079.0	40.4769
1080.0	40.4518
1081.0	40.4268
1082.0	40.4018
1083.0	40.3768
1084.0	40.3519
1085.0	40.3269
1086.0	40.3019
1087.0	40.2769
1088.0	40.2521
1089.0	40.2274
1090.0	40.2024
1091.0	40.1777
1092.0	40.1528
1093.0	40.1279
1094.0	40.1032
1095.0	40.0786
1096.0	40.0538
1097.0	40.1493
1098.0	40.0454
1099.0	39.9797
1100.0	39.9551
1101.0	39.9304
1102.0	39.9059
1103.0	39.8814
1104.0	39.857
1105.0	39.8324
1106.0	39.8078
1107.0	39.7832
1108.0	39.7586
1109.0	39.7341
1110.0	39.7098
1111.0	39.6854
1112.0	39.6609
1113.0	39.7202
1114.0	39.6122
1115.0	39.5877
1116.0	39.5633
1117.0	39.5391
1118.0	39.5148
1119.0	39.4904
1120.0	39.4661
1121.0	39.4419
1122.0	39.4177
1123.0	39.3935
1124.0	39.3695
1125.0	39.3454
1126.0	39.3211
1127.0	39.2969
1128.0	39.2729
1129.0	39.249
1130.0	39.2249
1131.0	39.2007
1132.0	39.1771
1133.0	39.1535
1134.0	39.1299
1135.0	39.1065
1136.0	39.0831
1137.0	39.0596
1138.0	39.0362
1139.0	39.0127
1140.0	38.9893
1141.0	38.966
1142.0	38.9427
1143.0	38.9193
1144.0	38.8959
1145.0	38.8727
1146.0	38.8495
1147.0	38.8263
1148.0	38.8028
1149.0	38.7797
1150.0	38.7565
1151.0	38.7332
1152.0	38.7101
1153.0	38.7138
1154.0	38.6638
1155.0	38.6407
1156.0	38.6177
1157.0	38.5945
1158.0	38.5712
1159.0	38.5482
1160.0	38.5253
1161.0	38.5021
1162.0	38.4791
1163.0	38.5926
1164.0	38.4333
1165.0	38.4103
1166.0	38.3872
1167.0	38.3643
1168.0	38.3413
1169.0	38.3184
1170.0	38.2956
1171.0	38.2725
1172.0	38.2496
1173.0	38.2268
1174.0	38.204
1175.0	38.1811
1176.0	38.1583
1177.0	38.1359
1178.0	38.1129
1179.0	38.0901
1180.0	38.0672
1181.0	38.0446
1182.0	38.022
1183.0	37.9993
1184.0	37.9765
1185.0	37.9539
1186.0	37.9311
1187.0	37.9086
1188.0	37.886
1189.0	37.8633
1190.0	37.8407
1191.0	37.8181
1192.0	37.7955
1193.0	37.7731
1194.0	37.7506
1195.0	37.728
1196.0	37.7055
1197.0	37.6828
1198.0	37.6605
1199.0	37.6378
1200.0	37.6153
1201.0	37.5929
1202.0	37.5705
1203.0	37.5482
1204.0	37.5258
1205.0	37.5033
1206.0	37.4808
1207.0	37.4584
1208.0	37.4703
1209.0	37.4137
1210.0	37.3912
1211.0	37.3688
1212.0	37.3466
1213.0	37.3243
1214.0	37.302
1215.0	37.2796
1216.0	37.2572
1217.0	37.235
1218.0	37.2126
1219.0	37.1902
1220.0	37.168
1221.0	37.1457
1222.0	37.1233
1223.0	37.101
1224.0	37.0787
1225.0	37.0564
1226.0	37.0339
1227.0	37.0114
1228.0	36.9891
1229.0	37.0234
1230.0	36.9443
1231.0	36.9216
1232.0	36.899
1233.0	36.8764
1234.0	36.8537
1235.0	36.8309
1236.0	36.8079
1237.0	36.785
1238.0	36.7617
1239.0	36.7381
1240.0	36.7142
1241.0	36.6903
1242.0	36.6652
1243.0	36.64
1244.0	36.6147
1245.0	36.5888
1246.0	36.5602
1247.0	36.5317
1248.0	36.5031
1249.0	36.4692
1250.0	36.4337
1251.0	36.3939
1252.0	36.3497
1253.0	36.2968
1254.0	36.2328
1255.0	36.1499
1256.0	36.0842
1257.0	36.1089
1258.0	36.1502
1259.0	36.1716
1260.0	36.1816
1261.0	36.1836
1262.0	36.1823
1263.0	36.1753
1264.0	36.1646
1265.0	36.1538
1266.0	36.1407
1267.0	36.1246
1268.0	36.1085
1269.0	36.0925
1270.0	36.0744
1271.0	36.0562
1272.0	36.0374
1273.0	36.0184
1274.0	35.9991
1275.0	35.9796
1276.0	35.9599
1277.0	35.9399
1278.0	35.9201
1279.0	35.8999
1280.0	35.8797
1281.0	35.8595
1282.0	35.8393
1283.0	35.819
1284.0	35.7986
1285.0	35.7783
1286.0	35.7579
1287.0	35.7375
1288.0	35.7171
1289.0	35.6968
1290.0	35.6763
1291.0	35.6558
1292.0	35.6352
1293.0	35.6147
1294.0	35.5943
1295.0	35.5738
1296.0	35.5533
1297.0	35.5329
1298.0	35.5124
1299.0	35.4919
1300.0	35.4713
1301.0	35.451
1302.0	35.4304
1303.0	35.4099
1304.0	35.3895
1305.0	35.3692
1306.0	35.3488
1307.0	35.3283
1308.0	35.3079
1309.0	35.2874
1310.0	35.2671
1311.0	35.2467
1312.0	35.2264
1313.0	35.2059
1314.0	35.1855
1315.0	35.1652
1316.0	35.1449
1317.0	35.1245
1318.0	35.1043
1319.0	35.0839
1320.0	35.0635
1321.0	35.0432
1322.0	35.023
1323.0	35.0029
1324.0	34.9827
1325.0	34.9624
1326.0	34.9422
1327.0	34.9219
1328.0	34.9016
1329.0	34.8813
1330.0	34.8613
1331.0	34.841
1332.0	34.8208
1333.0	34.8007
1334.0	34.7805
1335.0	34.7604
1336.0	34.7403
1337.0	34.7202
1338.0	34.7
1339.0	34.6799
1340.0	34.6597
1341.0	34.6397
1342.0	34.6197
1343.0	34.5996
1344.0	34.5797
1345.0	34.5595
1346.0	34.5396
1347.0	34.5195
1348.0	34.4997
1349.0	34.4796
1350.0	34.4597
1351.0	34.4398
1352.0	34.4197
1353.0	34.3998
1354.0	34.3799
1355.0	34.36
1356.0	34.3402
1357.0	34.3202
1358.0	34.3003
1359.0	34.2804
1360.0	34.2605
1361.0	34.2406
1362.0	34.2208
1363.0	34.2009
1364.0	34.181
1365.0	34.1612
1366.0	34.1418
1367.0	34.1224
1368.0	34.103
1369.0	34.0836
1370.0	34.0642
1371.0	34.0447
1372.0	34.0253
1373.0	34.006
1374.0	33.9868
1375.0	33.9675
1376.0	33.9483
1377.0	33.9291
1378.0	33.9099
1379.0	33.8907
1380.0	33.8716
1381.0	33.8524
1382.0	33.8333
1383.0	33.8141
1384.0	33.7951
1385.0	33.7761
1386.0	33.757
1387.0	33.738
1388.0	33.7189
1389.0	33.6996
1390.0	33.6807
1391.0	33.6614
1392.0	33.6426
1393.0	33.6233
1394.0	33.6043
1395.0	33.5853
1396.0	33.5663
1397.0	33.5474
1398.0	33.5284
1399.0	33.5094
