# Data was provided from Jon Gudmundsson
# freq[GHz]	T_rj[K_rj]
1.79876	317.8586
1.83473	317.1112
1.87142	316.414
1.90885	315.7752
1.94703	315.0264
1.98597	314.3268
2.02569	313.5117
2.0662	312.765
2.10753	311.9843
2.14968	311.0976
2.19267	310.2849
2.23653	309.4406
2.28126	308.5713
2.32688	307.6014
2.37342	306.6917
2.42089	305.7059
2.46931	304.6972
2.51869	303.666
2.56907	302.6389
2.62045	301.5772
2.67286	300.5028
2.72631	299.3752
2.78084	298.222
2.83646	297.0609
2.89318	295.848
2.95105	294.6242
3.01007	293.3756
3.07027	292.092
3.13168	290.7904
3.19431	289.4619
3.2582	288.0972
3.32336	286.7032
3.38983	285.3057
3.45762	283.8641
3.52678	282.3932
3.59731	280.9174
3.66926	279.398
3.74264	277.8822
3.8175	276.3394
3.89385	274.7679
3.97172	273.1674
4.05116	271.5428
4.13218	269.9022
4.21482	268.2563
4.29912	266.581
4.3851	264.9015
4.4728	263.1894
4.56226	261.4752
4.65351	259.7451
4.74658	257.9933
4.84151	256.2398
4.93834	254.4737
5.0371	252.6965
5.13785	250.9092
5.2406	249.1193
5.34542	247.3278
5.45232	245.5293
5.56137	243.7252
5.6726	241.9194
5.78605	240.1143
5.90177	238.3107
6.01981	236.5097
6.1402	234.7096
6.26301	232.9187
6.38827	231.127
6.51603	229.345
6.64635	227.5696
6.77928	225.8038
6.91487	224.0484
7.05316	222.2982
7.19423	220.5611
7.33811	218.8362
7.48487	217.1189
7.63457	215.4183
7.78726	213.7291
7.94301	212.0521
8.10187	210.3914
8.2639	208.7407
8.42918	207.1049
8.59776	205.485
8.76972	203.8771
8.94512	202.2848
9.12402	200.7075
9.3065	199.1433
9.49263	197.5932
9.68248	196.0573
9.87613	194.5351
10.07365	193.0296
10.22784	191.8849
10.33063	191.135
10.39916	190.6389
10.44484	190.3153
10.4753	190.098
10.4956	189.9546
10.50914	189.859
10.51816	189.7954
10.52418	189.7513
10.52819	189.7257
10.53086	189.7062
10.53265	189.6945
10.53383	189.6841
10.53463	189.6791
10.53515	189.6759
10.53551	189.6735
10.53574	189.6714
10.5359	189.67
10.536	189.6691
10.53607	189.6686
10.53612	189.6682
10.53615	189.6679
10.53617	189.6678
10.53618	189.6676
10.5362	189.6675
10.53622	189.6674
10.53625	189.6671
10.53629	189.6667
10.53636	189.6661
10.53646	189.6653
10.53661	189.6642
10.53683	189.663
10.53717	189.6615
10.53768	189.6587
10.53845	189.652
10.53959	189.644
10.54131	189.6309
10.54388	189.6127
10.54774	189.5876
10.55354	189.5458
10.56223	189.486
10.57527	189.3947
10.59482	189.2574
10.62415	189.0526
10.66815	188.748
10.73415	188.2963
10.83314	187.6247
10.98164	186.632
11.20127	185.2056
11.42529	183.7884
11.59929	182.7156
11.71528	182.018
11.79261	181.5545
11.84417	181.2497
11.87854	181.0482
11.90145	180.9127
11.91673	180.8232
11.92691	180.7641
11.9337	180.724
11.93822	180.6994
11.94124	180.6822
11.94325	180.6691
11.94459	180.6612
11.94549	180.6556
11.94608	180.6522
11.94648	180.6502
11.94674	180.6488
11.94692	180.6481
11.94704	180.6475
11.94712	180.647
11.94717	180.6466
11.94721	180.6464
11.94723	180.6462
11.94724	180.6461
11.94726	180.646
11.94728	180.6458
11.94732	180.6456
11.94737	180.6452
11.94744	180.6446
11.94756	180.6438
11.94773	180.6425
11.94798	180.6405
11.94837	180.6384
11.94895	180.6354
11.94981	180.6304
11.95111	180.623
11.95306	180.6114
11.95599	180.596
11.96037	180.5691
11.96695	180.5314
11.97682	180.474
11.99163	180.3885
12.01384	180.259
12.04715	180.0666
12.09711	179.7807
12.14853	179.4892
12.18281	179.2935
12.20566	179.1651
12.22089	179.0786
12.23105	179.0233
12.23782	178.9851
12.24233	178.959
12.24534	178.9413
12.24735	178.9307
12.24869	178.9231
12.24958	178.9184
12.25017	178.9153
12.25057	178.9134
12.25083	178.9121
12.25101	178.9113
12.25113	178.9106
12.2512	178.9101
12.25126	178.9098
12.25129	178.9096
12.25131	178.9094
12.25133	178.9093
12.25134	178.9092
12.25136	178.9091
12.2514	178.9089
12.25144	178.9086
12.25152	178.908
12.25162	178.9072
12.25178	178.9061
12.25202	178.9043
12.25238	178.902
12.25292	178.8991
12.25373	178.8947
12.25495	178.8882
12.25677	178.8782
12.25951	178.8624
12.26362	178.8394
12.26977	178.8057
12.27901	178.7543
12.29286	178.6758
12.30741	178.5961
12.3171	178.5424
12.32356	178.5055
12.32787	178.4808
12.33075	178.4654
12.33266	178.4558
12.33394	178.4474
12.33479	178.4422
12.33536	178.4394
12.33574	178.4373
12.33599	178.4357
12.33615	178.435
12.33627	178.4345
12.33634	178.4342
12.33639	178.434
12.33642	178.4338
12.33645	178.4337
12.33646	178.4337
12.33647	178.4337
12.33649	178.4336
12.33652	178.4335
12.33656	178.4333
12.33662	178.4332
12.3367	178.4329
12.33684	178.4326
12.33704	178.4318
12.33734	178.4304
12.33778	178.4275
12.33846	178.4226
12.33947	178.4165
12.34098	178.4077
12.34325	178.3971
12.34666	178.3766
12.35177	178.3476
12.35944	178.3063
12.37094	178.2426
12.38819	178.1466
12.41406	178.0055
12.45287	177.7914
12.51108	177.4753
12.59841	177.004
12.70663	176.4236
12.77877	176.0433
12.82687	175.7912
12.85894	175.6229
12.88031	175.51
12.89457	175.4364
12.90407	175.386
12.9104	175.355
12.91462	175.3339
12.91744	175.3182
12.91932	175.3088
12.92057	175.3019
12.9214	175.2977
12.92196	175.2948
12.92233	175.2928
12.92257	175.2915
12.92274	175.2906
12.92285	175.2901
12.92292	175.2897
12.92297	175.2895
12.923	175.2893
12.92303	175.2892
12.92304	175.2891
12.92305	175.289
12.92308	175.2889
12.92311	175.2887
12.92316	175.2884
12.92324	175.288
12.92335	175.2874
12.92353	175.2864
12.92379	175.2852
12.92417	175.2835
12.92476	175.2811
12.92563	175.2762
12.92694	175.2704
12.9289	175.2577
12.93185	175.244
12.93626	175.2201
12.94289	175.1864
12.95284	175.1344
12.96775	175.0582
12.99012	174.9426
13.02367	174.7704
13.074	174.5136
13.14812	174.1388
13.19754	173.8885
13.23048	173.7233
13.25245	173.6138
13.26709	173.5394
13.27685	173.4924
13.28336	173.4592
13.28769	173.4371
13.29059	173.4233
13.29252	173.4137
13.2938	173.4071
13.29466	173.404
13.29523	173.4011
13.29561	173.3989
13.29586	173.3976
13.29603	173.3967
13.29615	173.3962
13.29622	173.3959
13.29627	173.3956
13.2963	173.3955
13.29633	173.3954
13.29634	173.3953
13.29636	173.3952
13.29637	173.3951
13.2964	173.395
13.29645	173.3948
13.29651	173.3945
13.29661	173.394
13.29675	173.3932
13.29697	173.392
13.2973	173.3902
13.2978	173.3878
13.29854	173.3839
13.29965	173.378
13.30132	173.3714
13.30381	173.3588
13.30756	173.3403
13.31319	173.3114
13.32162	173.2677
13.33428	173.2064
13.35326	173.1121
13.38173	172.972
13.42444	172.7631
13.4885	172.452
13.52972	172.2508
13.55721	172.1164
13.57553	172.0284
13.58774	171.9675
13.59589	171.9308
13.60131	171.9041
13.60493	171.8861
13.60735	171.8754
13.60895	171.8656
13.61003	171.8616
13.61074	171.8586
13.61122	171.8564
13.61154	171.8551
13.61175	171.8543
13.61189	171.8539
13.61198	171.8534
13.61205	171.8531
13.61209	171.8529
13.61211	171.8527
13.61213	171.8526
13.61215	171.8526
13.61216	171.8525
13.61219	171.8524
13.61223	171.8522
13.61228	171.8519
13.61237	171.8514
13.6125	171.8507
13.6127	171.8497
13.61299	171.8481
13.61343	171.8454
13.61408	171.8408
13.61507	171.837
13.61655	171.8315
13.61877	171.8199
13.6221	171.8046
13.62709	171.7806
13.63457	171.7432
13.64581	171.6894
13.66417	171.6025
13.67642	171.5428
13.68458	171.5048
13.69002	171.4794
13.69365	171.4607
13.69607	171.4501
13.69768	171.442
13.69876	171.4356
13.69947	171.4333
13.69995	171.4319
13.70027	171.4305
13.70048	171.4295
13.70062	171.4288
13.70072	171.4282
13.70078	171.4278
13.70082	171.4275
13.70085	171.4273
13.70087	171.4272
13.70088	171.4271
13.7009	171.427
13.70092	171.4269
13.70095	171.4267
13.70099	171.4265
13.70106	171.4261
13.70117	171.4256
13.70132	171.4246
13.70156	171.4231
13.70191	171.4212
13.70243	171.4188
13.70322	171.416
13.7044	171.41
13.70618	171.4016
13.70884	171.3893
13.71283	171.3696
13.71497	171.3603
13.7164	171.3526
13.71736	171.3474
13.71799	171.3451
13.71842	171.3436
13.7187	171.3423
13.71889	171.3414
13.71901	171.3408
13.7191	171.3404
13.71915	171.3401
13.71919	171.34
13.71921	171.3399
13.71923	171.3398
13.71924	171.3398
13.71926	171.3397
13.71929	171.3395
13.71934	171.3393
13.71941	171.3389
13.71951	171.3385
13.71966	171.3379
13.71988	171.337
13.72022	171.3356
13.72073	171.3334
13.7215	171.3292
13.72264	171.3222
13.72436	171.315
13.72694	171.3031
13.73081	171.2852
13.73661	171.2569
13.74531	171.2138
13.75836	171.1532
13.77795	171.0614
13.80732	170.9216
13.86309	170.6602
13.90027	170.4873
13.92506	170.3705
13.94159	170.2944
13.9526	170.2428
13.95995	170.2086
13.96485	170.1852
13.96811	170.1704
13.97029	170.1595
13.97174	170.1535
13.9727	170.1495
13.97335	170.1463
13.97378	170.1439
13.97407	170.1426
13.97426	170.1418
13.97438	170.1412
13.97447	170.1409
13.97453	170.1407
13.97456	170.1405
13.97459	170.1404
13.9746	170.1404
13.97462	170.1403
13.97465	170.1402
13.97469	170.14
13.97475	170.1398
13.97484	170.1394
13.97498	170.1387
13.97519	170.1378
13.9755	170.1366
13.97596	170.1345
13.97666	170.1311
13.97771	170.1253
13.97927	170.1193
13.98163	170.1071
13.98516	170.0923
13.99045	170.0674
13.99839	170.03
14.0103	169.9741
14.02817	169.8923
14.05496	169.7702
14.09516	169.5832
14.13833	169.3864
14.16711	169.2572
14.1863	169.1682
14.19909	169.1103
14.20762	169.073
14.2133	169.0473
14.21709	169.0284
14.21962	169.0184
14.2213	169.0103
14.22243	169.0033
14.22318	169.0004
14.22367	168.9991
14.22401	168.9978
14.22423	168.997
14.22438	168.9963
14.22448	168.9959
14.22454	168.9956
14.22459	168.9954
14.22461	168.9953
14.22463	168.9952
14.22465	168.9951
14.22466	168.9951
14.22468	168.995
14.22471	168.9949
14.22475	168.9947
14.22482	168.9945
14.22492	168.9942
14.22506	168.9937
14.22529	168.9929
14.22562	168.9916
14.22612	168.9894
14.22686	168.9854
14.22799	168.9785
14.22967	168.9723
14.23219	168.9621
14.23598	168.9439
14.24165	168.92
14.25017	168.8791
14.26295	168.8226
14.28211	168.7365
14.31369	168.5923
14.33474	168.499
14.34877	168.436
14.35813	168.3948
14.36437	168.3662
14.36853	168.3488
14.3713	168.3366
14.37315	168.3275
14.37438	168.3219
14.3752	168.3178
14.37575	168.3153
14.37611	168.314
14.37636	168.3133
14.37652	168.3127
14.37663	168.3123
14.3767	168.3119
14.37675	168.3117
14.37678	168.3116
14.3768	168.3115
14.37682	168.3114
14.37683	168.3113
14.37686	168.3112
14.3769	168.311
14.37696	168.3107
14.37704	168.3103
14.37717	168.3096
14.37737	168.3087
14.37766	168.3075
14.3781	168.3057
14.37875	168.3022
14.37974	168.297
14.38122	168.2907
14.38343	168.2814
14.38676	168.267
14.39174	168.2446
14.39923	168.2111
14.41045	168.16
14.42728	168.0868
14.45253	167.9755
14.4904	167.8063
14.54721	167.5559
14.63243	167.1839
14.69581	166.9081
14.73806	166.7224
14.76623	166.6012
14.78501	166.5206
14.79753	166.4666
14.80587	166.4304
14.81144	166.4071
14.81515	166.3893
14.81762	166.3805
14.81927	166.3725
14.82037	166.3676
14.8211	166.3649
14.82159	166.3631
14.82191	166.3615
14.82213	166.3605
14.82228	166.3598
14.82237	166.3594
14.82244	166.3591
14.82248	166.3589
14.82251	166.3588
14.82253	166.3587
14.82254	166.3587
14.82256	166.3586
14.8226	166.3585
14.82265	166.3584
14.82272	166.3581
14.82284	166.3578
14.82301	166.3573
14.82326	166.3562
14.82364	166.3543
14.82422	166.3517
14.82508	166.3481
14.82637	166.3416
14.8283	166.3344
14.8312	166.3197
14.83555	166.3037
14.84208	166.2745
14.85187	166.2325
14.86656	166.1702
14.88859	166.076
14.92164	165.9339
14.97121	165.7226
15.04556	165.4077
15.10813	165.1456
15.14984	164.9701
15.17765	164.8536
15.19619	164.7751
15.20855	164.7238
15.21679	164.6897
15.22228	164.6671
15.22594	164.6521
15.22838	164.6415
15.23001	164.6338
15.2311	164.63
15.23182	164.6275
15.2323	164.6259
15.23262	164.6247
15.23284	164.6235
15.23298	164.6226
15.23308	164.622
15.23314	164.6216
15.23318	164.6213
15.23321	164.6211
15.23323	164.621
15.23325	164.6209
15.23327	164.6208
15.23331	164.6205
15.23337	164.6202
15.23347	164.6196
15.2336	164.6187
15.23381	164.6175
15.23411	164.6162
15.23457	164.6144
15.23526	164.6125
15.2363	164.6092
15.23785	164.6006
15.24018	164.5926
15.24367	164.5768
15.24891	164.5549
15.25677	164.524
15.26855	164.474
15.28624	164.4018
15.31276	164.2907
15.35254	164.1252
15.37254	164.0441
15.38587	163.9887
15.39475	163.9525
15.40068	163.9278
15.40463	163.9116
15.40726	163.9001
15.40902	163.8934
15.41019	163.8895
15.41097	163.8855
15.41149	163.8826
15.41183	163.8812
15.41206	163.8804
15.41222	163.8799
15.41232	163.8795
15.41239	163.8793
15.41244	163.8791
15.41247	163.879
15.41249	163.8789
15.41251	163.8788
15.41253	163.8787
15.41258	163.8785
15.41264	163.8782
15.41274	163.8779
15.41288	163.8773
15.4131	163.8764
15.41342	163.8752
15.41391	163.8736
15.41465	163.8716
15.41574	163.8669
15.41739	163.8587
15.41987	163.8493
15.42358	163.8336
15.42914	163.8126
15.43748	163.7749
15.4663	163.6586
15.48551	163.5785
15.49832	163.5275
15.50686	163.4919
15.51255	163.4691
15.51635	163.4521
15.51888	163.4442
15.52057	163.4366
15.52169	163.4315
15.52244	163.429
15.52294	163.4271
15.52327	163.4255
15.52349	163.4243
15.52364	163.4235
15.52374	163.423
15.52381	163.4227
15.52385	163.4225
15.52388	163.4223
15.5239	163.4222
15.52392	163.4221
15.52394	163.422
15.52398	163.4219
15.52404	163.4216
15.52413	163.4213
15.52427	163.4209
15.52447	163.4203
15.52478	163.4196
15.52523	163.418
15.52592	163.4145
15.52695	163.4099
15.52849	163.4036
15.5308	163.3965
15.53426	163.3807
15.53946	163.3593
15.54726	163.3276
15.55896	163.2808
15.5765	163.2081
15.60282	163.1013
15.61282	163.0611
15.6195	163.0341
15.62394	163.0161
15.62691	163.0035
15.62888	162.9967
15.6302	162.991
15.63108	162.9869
15.63167	162.9832
15.63206	162.9816
15.63232	162.9811
15.63249	162.9807
15.63261	162.9804
15.63268	162.9801
15.63273	162.9799
15.63277	162.9798
15.63279	162.9797
15.63281	162.9796
15.63282	162.9795
15.63285	162.9794
15.63289	162.9792
15.63295	162.979
15.63304	162.9786
15.63317	162.978
15.63337	162.977
15.63366	162.9757
15.63411	162.9742
15.63478	162.972
15.63645	162.9653
15.63757	162.9598
15.63831	162.9567
15.63881	162.9548
15.63914	162.9539
15.63936	162.9534
15.63951	162.953
15.6396	162.9529
15.63967	162.9528
15.63971	162.9527
15.63974	162.9526
15.63976	162.9525
15.63978	162.9525
15.63981	162.9524
15.63985	162.9522
15.63991	162.952
15.64	162.9516
15.64014	162.9509
15.64034	162.9499
15.64065	162.9483
15.64111	162.9462
15.64181	162.9432
15.64285	162.9379
15.64441	162.9335
15.64675	162.9226
15.65026	162.9076
15.65553	162.8873
15.66343	162.8549
15.67529	162.8066
15.69307	162.7359
15.71974	162.6296
15.75975	162.4668
15.81977	162.2257
15.85759	162.0746
15.88281	161.9756
15.89962	161.907
15.91083	161.8617
15.9183	161.8325
15.92328	161.8133
15.92661	161.7984
15.92882	161.7917
15.93029	161.7841
15.93128	161.7799
15.93194	161.7774
15.93237	161.7762
15.93266	161.7757
15.93286	161.7753
15.93299	161.7751
15.93307	161.7749
15.93313	161.7748
15.93317	161.7747
15.9332	161.7747
15.93321	161.7746
15.93323	161.7746
15.93326	161.7745
15.93331	161.7744
15.93337	161.7742
15.93348	161.7738
15.93363	161.7731
15.93385	161.772
15.93419	161.7703
15.9347	161.7681
15.93547	161.7642
15.93661	161.7595
15.93833	161.7542
15.94091	161.7417
15.94478	161.7276
15.95058	161.7044
15.95929	161.6689
15.97235	161.6175
15.99193	161.5403
16.02131	161.425
16.06539	161.2493
16.15004	160.9157
16.20648	160.6947
16.24411	160.5476
16.26919	160.4492
16.28591	160.3839
16.29706	160.3403
16.30449	160.3117
16.30945	160.2924
16.31275	160.2792
16.31495	160.2697
16.31642	160.2643
16.3174	160.2615
16.31805	160.2597
16.31849	160.2579
16.31878	160.2564
16.31897	160.2555
16.3191	160.2548
16.31919	160.2544
16.31924	160.2541
16.31928	160.2539
16.31931	160.2538
16.31932	160.2537
16.31934	160.2536
16.31937	160.2534
16.31941	160.2532
16.31948	160.2529
16.31957	160.2524
16.31971	160.2518
16.31992	160.2508
16.32023	160.2496
16.32071	160.2477
16.32142	160.245
16.32249	160.2426
16.32409	160.2362
16.32649	160.2259
16.33009	160.2114
16.33549	160.1903
16.34359	160.1602
16.35574	160.1115
16.37397	160.0407
16.40102	159.9368
16.41906	159.8673
16.43109	159.8179
16.4391	159.7887
16.44445	159.7672
16.44801	159.7529
16.45038	159.7447
16.45197	159.7387
16.45302	159.7343
16.45373	159.732
16.4542	159.7305
16.45451	159.7292
16.45472	159.7282
16.45486	159.7276
16.45495	159.7272
16.45501	159.7269
16.45505	159.7267
16.45508	159.7266
16.4551	159.7265
16.45512	159.7264
16.45515	159.7263
16.45519	159.7261
16.45526	159.7258
16.45535	159.7254
16.4555	159.7249
16.45572	159.7242
16.45605	159.7229
16.45655	159.721
16.45729	159.7182
16.45841	159.7131
16.46008	159.7067
16.46259	159.6968
16.46636	159.6846
16.472	159.6607
16.48047	159.6275
16.49318	159.5785
16.51224	159.5057
16.54083	159.3955
16.58372	159.2301
16.64805	158.9835
16.69809	158.792
16.73145	158.6658
16.7537	158.5814
16.76852	158.5242
16.77841	158.4847
16.785	158.4609
16.78939	158.4445
16.79232	158.4317
16.79427	158.4251
16.79558	158.4205
16.79644	158.4168
16.79702	158.4146
16.79741	158.4133
16.79766	158.4124
16.79784	158.4118
16.79795	158.4114
16.79803	158.4111
16.79808	158.411
16.79811	158.4108
16.79813	158.4107
16.79815	158.4107
16.79818	158.4106
16.79822	158.4104
16.79829	158.4101
16.79838	158.4098
16.79852	158.4092
16.79873	158.4085
16.79906	158.4073
16.79953	158.4057
16.80025	158.403
16.80133	158.3985
16.80295	158.3919
16.80537	158.3836
16.80901	158.3693
16.81446	158.3498
16.82265	158.3188
16.82877	158.2928
16.83285	158.2783
16.83557	158.2683
16.83739	158.2618
16.83859	158.2569
16.8394	158.2546
16.83994	158.2528
16.8403	158.2512
16.84054	158.25
16.8407	158.2492
16.8408	158.2487
16.84087	158.2484
16.84092	158.2482
16.84095	158.248
16.84097	158.2479
16.84099	158.2478
16.84101	158.2476
16.84105	158.2473
16.84111	158.247
16.8412	158.2466
16.84132	158.246
16.84152	158.2449
16.84181	158.2436
16.84224	158.2421
16.84289	158.2404
16.84387	158.2374
16.84534	158.231
16.84753	158.2242
16.85083	158.2103
16.85578	158.191
16.86319	158.1643
16.87432	158.12
16.89101	158.0583
16.91605	157.9642
16.95361	157.8202
17.00994	157.6085
17.10381	157.2548
17.16638	157.0192
17.2081	156.8647
17.23591	156.7598
17.25445	156.6916
17.26681	156.6452
17.27505	156.6138
17.28054	156.5934
17.28421	156.5803
17.28665	156.5706
17.28827	156.5645
17.28936	156.5597
17.29008	156.5571
17.29057	156.5555
17.29089	156.5546
17.2911	156.554
17.29124	156.5536
17.29134	156.5533
17.2914	156.5531
17.29145	156.553
17.29147	156.5529
17.29149	156.5528
17.29151	156.5527
17.29155	156.5526
17.29159	156.5525
17.29166	156.5522
17.29177	156.5519
17.29193	156.5513
17.29217	156.5504
17.29252	156.5487
17.29306	156.5456
17.29386	156.543
17.29507	156.539
17.29687	156.5316
17.29959	156.5221
17.30365	156.5065
17.30975	156.4852
17.3189	156.4519
17.33263	156.3992
17.3478	156.3415
17.35792	156.3043
17.36467	156.2792
17.36916	156.2628
17.37216	156.2521
17.37416	156.2435
17.37549	156.24
17.37638	156.2364
17.37697	156.2337
17.37737	156.2323
17.37763	156.2313
17.37781	156.2306
17.37792	156.2301
17.378	156.2299
17.37805	156.2297
17.37809	156.2295
17.37811	156.2294
17.37813	156.2293
17.37815	156.2292
17.37819	156.2291
17.37824	156.2288
17.37832	156.2285
17.37845	156.2282
17.37864	156.2278
17.37891	156.2273
17.37933	156.2264
17.37996	156.2237
17.3809	156.2188
17.38232	156.2144
17.38444	156.2061
17.38761	156.1941
17.39238	156.1767
17.39953	156.1489
17.41026	156.1102
17.42636	156.0499
17.4505	155.9596
17.48671	155.8276
17.54102	155.6264
17.6225	155.3257
17.75412	154.8416
17.84187	154.5197
17.90037	154.3071
17.93937	154.1646
17.96537	154.0701
17.98271	154.0064
17.99426	153.9646
18.00196	153.9365
18.0071	153.917
18.01052	153.9055
18.01281	153.898
18.01433	153.8907
18.01534	153.8885
18.01602	153.8866
18.01647	153.8852
18.01677	153.8838
18.01697	153.8826
18.01711	153.8818
18.01719	153.8813
18.01725	153.8809
18.01729	153.8807
18.01732	153.8805
18.01734	153.8804
18.01736	153.8803
18.01739	153.8801
18.01743	153.8799
18.0175	153.8796
18.0176	153.8792
18.01776	153.8786
18.01799	153.8777
18.01833	153.8768
18.01885	153.8756
18.01962	153.8737
18.02079	153.8691
18.02253	153.8615
18.02515	153.8514
18.02908	153.8382
18.03497	153.8174
18.0438	153.785
18.05705	153.7372
18.07693	153.6658
18.10674	153.5565
18.11355	153.531
18.11808	153.5151
18.12111	153.5039
18.12312	153.4975
18.12446	153.4926
18.12536	153.4895
18.12596	153.4872
18.12636	153.4854
18.12662	153.4842
18.1268	153.4834
18.12692	153.4829
18.127	153.4826
18.12705	153.4824
18.12708	153.4823
18.12711	153.4822
18.12712	153.4821
18.12715	153.482
18.12719	153.4818
